intensity,750,800,850,ua,left,right,ctr
62114,62670,60711,60525,0.2654,60032,65108,62114
59827,60250,58493,58663,0.2654,57772,64706,59827
57844,58269,56349,56790,0.2654,55644,59862,57844
55736,56540,54466,55076,0.2654,53651,58095,55736
53660,54368,52587,52926,0.2654,51504,55892,53660
51755,52299,50558,50967,0.2654,49600,53976,51755
49887,50448,48893,49138,0.2654,47631,52187,49887
48131,48578,46900,47238,0.2654,45718,50362,48131
46295,46804,45247,45370,0.2654,43924,48566,46295
44680,44986,43567,43789,0.2654,42097,46774,44680
43007,43362,41920,42259,0.2654,40467,45253,43007
41319,41678,40349,40523,0.2654,38804,43621,41319
39715,39979,38924,39050,0.2654,37206,42116,39715
38314,38508,37403,37422,0.2654,35806,40650,38314
36967,37148,36067,36053,0.2654,34390,39310,36967
35450,35676,34611,34792,0.2654,32936,37852,35450
34143,34333,33250,33482,0.2654,31616,36556,34143
32981,33192,32123,32316,0.2654,30466,35376,32981
31735,31860,30788,31111,0.2654,29240,34115,31735
30638,30676,29805,29834,0.2654,28023,32882,30638
29632,29661,28671,28817,0.2654,26925,31821,29632
28487,28560,27645,27707,0.2654,25753,30653,28487
27379,27438,26507,26625,0.2654,24724,29672,27379
26454,26451,25646,25716,0.2654,23795,28679,26454
25477,25432,24680,24755,0.2654,22775,27631,25477
24609,24545,23740,23889,0.2654,21882,26824,24609
23740,23617,22868,23041,0.2654,20983,25888,23740
22822,22803,21982,22166,0.2654,20159,24905,22822
22083,22033,21312,21530,0.4807,19380,24143,22083
21247,21247,20503,20698,0.4905,18617,23497,21247
20479,20423,19756,19980,0.5008,17812,22487,20479
19755,19675,19117,19210,0.4572,17156,21887,19755
19075,18908,18391,18462,0.4351,16390,21190,19075
18361,18233,17728,17786,0.4492,15761,20416,18361
17791,17712,17084,17310,0.3957,15172,19831,17791
17076,17014,16507,16543,0.4381,14537,19259,17076
16594,16444,16068,16063,0.3612,14093,18628,16594
15949,15810,15310,15533,0.3969,13424,18093,15949
15730,15468,14939,15237,0.2221,13297,17901,15730
14815,14621,14236,14342,0.4207,12329,16967,14815
14316,14107,13809,13738,0.4025,11914,16435,14316
13756,13526,13297,13263,0.4416,11498,15892,13756
13234,13141,12796,12859,0.472,10976,15478,13234
12847,12651,12427,12396,0.4428,10690,14942,12847
12400,12234,11962,11968,0.4556,10279,14566,12400
11982,11793,11629,11555,0.4268,9838,14088,11982
11561,11427,11234,11140,0.444,9535,13723,11561
11115,11022,10767,10784,0.5083,9226,13215,11115
10825,10658,10462,10428,0.4665,8865,12975,10825
10443,10275,10112,10110,0.4611,8552,12620,10443
10178,9942,9821,9785,0.4066,8245,12227,10178
9780,9603,9502,9428,0.4817,8001,11897,9780
9448,9248,9169,9178,0.501,7705,11501,9448
9153,8969,8876,8861,0.5124,7488,11210,9153
8891,8671,8488,8541,0.4762,7224,10909,8891
8503,8374,8323,8245,0.5691,7058,10595,8503
8299,8110,8021,7976,0.4988,6758,10287,8299
8025,7814,7752,7742,0.5476,6589,10065,8025
7765,7577,7474,7496,0.5595,6407,9752,7765
7517,7295,7242,7262,0.5498,6183,9523,7517
7276,7086,7051,6989,0.5866,6036,9214,7276
7054,6857,6791,6798,0.5755,5841,8959,7054
6876,6660,6616,6611,0.5767,5713,8795,6876
6643,6369,6450,6337,0.5667,5536,8513,6643
6415,6181,6228,6162,0.64,5400,8284,6415
6218,5996,6023,5919,0.6125,5236,8053,6218
5942,5789,5813,5776,0.7416,5150,7813,5942
5837,5643,5658,5537,0.673,4947,7635,5837
5589,5429,5410,5410,0.7955,4816,7413,5589
5450,5278,5269,5244,0.7686,4681,7228,5450
5326,5105,5137,5072,0.7487,4605,7026,5326
5153,4932,5017,4934,0.759,4516,6836,5153
4956,4802,4831,4814,0.8547,4408,6653,4956
4828,4669,4674,4641,0.8183,4283,6495,4828
4670,4512,4541,4524,0.9132,4236,6347,4670
4578,4403,4464,4387,0.8548,4068,6171,4578
4433,4248,4273,4297,0.8623,4058,5997,4433
4308,4141,4199,4142,0.9162,3953,5813,4308
4209,4003,4091,4052,0.8745,3866,5680,4209
4072,3890,3981,3889,0.9805,3772,5514,4072
4021,3793,3860,3804,0.8305,3695,5401,4021
3873,3693,3762,3733,1,3643,5264,3873
3768,3595,3645,3592,0.9212,3576,5088,3768
3687,3564,3612,3573,0.9307,3473,4977,3687
3623,3446,3523,3497,0.8828,3473,4897,3623
3534,3392,3443,3391,0.9255,3341,4723,3534
3460,3273,3317,3333,0.9227,3276,4588,3460
3414,3187,3267,3236,0.7851,3242,4518,3414
3288,3159,3169,3154,0.9254,3214,4415,3288
3273,3086,3175,3132,0.8114,3200,4366,3273
3167,2996,3077,3034,0.8832,3129,4191,3167
3120,2947,3002,3002,0.8411,3058,4114,3120
3069,2878,2978,2888,0.7581,3011,3971,3069
2957,2824,2874,2834,0.9017,2929,3895,2957
2940,2807,2841,2799,0.8044,2902,3803,2940
2883,2729,2744,2738,0.7865,2868,3710,2883
2805,2651,2725,2729,0.7958,2832,3617,2805
2825,2624,2660,2671,0.6717,2835,3555,2825
2738,2576,2673,2633,0.728,2778,3493,2738
2696,2549,2575,2548,0.7529,2695,3344,2696
2648,2484,2530,2505,0.6415,2642,3305,2648
2614,2474,2494,2468,0.6685,2674,3233,2614
2555,2402,2493,2422,0.6626,2617,3141,2555
2533,2316,2485,2422,0.6007,2549,3105,2533
2491,2311,2364,2363,0.5804,2549,3004,2491
2474,2340,2347,2318,0.5792,2518,2940,2474
2413,2275,2323,2293,0.5169,2481,2895,2413
2411,2244,2283,2271,0.3694,2428,2793,2411
2364,2233,2235,2249,0.4867,2416,2759,2364
2301,2173,2237,2172,0.5049,2371,2730,2301
2294,2138,2211,2178,0.4926,2350,2644,2294
2308,2119,2204,2161,0.28,2336,2636,2308
2215,2085,2176,2125,0.388,2273,2569,2215
2208,2095,2139,2096,0.441,2226,2506,2208
2175,2028,2091,2058,0.3791,2227,2420,2175
2169,2011,2083,2031,0.2113,2234,2378,2169
2135,2013,2024,2002,0.3015,2180,2355,2135
2113,1950,2021,1990,0.2331,2144,2309,2113
2083,1949,2020,1997,0.2736,2133,2236,2083
2064,1888,1967,1925,0.1927,2096,2225,2064
2046,1898,1947,1899,0.1583,2096,2196,2046
2013,1938,1946,1889,0.1066,2044,2115,2013
2006,1880,1924,1855,0.0988,2061,2071,2006
1932,1831,1898,1873,0.1476,2004,2051,1932
1964,1852,1876,1848,0.0139,2002,2047,1964
1922,1791,1856,1785,0.0533,1985,1972,1922
1924,1813,1823,1791,0,1976,1953,1924
1864,1737,1811,1812,0.1556,1910,1902,1864
60084,60776,60080,60604,0.1023,,,
57757,58673,57868,58630,0.0788,,,
55771,56927,55815,56744,0.0437,,,
53691,54925,53778,54867,0.0235,,,
51637,52780,51854,52699,0.0113,,,
49609,50688,49827,50775,0.0067,,,
47660,48811,47901,48783,0.0032,,,
45848,46855,45918,46910,0,,,
43911,44934,44312,45013,0.0105,,,
42163,43247,42503,43312,0.0142,,,
40600,41596,40858,41695,0.012,,,
38929,39801,39207,39913,0.0259,,,
37254,38150,37680,38305,0.0442,,,
35812,36631,36127,36755,0.0521,,,
34367,35217,34738,35516,0.0627,,,
32903,33733,33252,33931,0.083,,,
31743,32460,32019,32512,0.0806,,,
30418,31156,30729,31368,0.1042,,,
29145,29902,29413,30120,0.1182,,,
27976,28695,28280,28920,0.1422,,,
27010,27658,27290,27793,0.1426,,,
25830,26381,26015,26522,0.1745,,,
24772,25415,24996,25531,0.1954,,,
23842,24271,23980,24560,0.2102,,,
22814,23234,23035,23575,0.2339,,,
21874,22413,22092,22756,0.2597,,,
21087,21371,21244,21584,0.2662,,,
20171,20550,20326,20733,0.3064,,,
19518,19870,19514,20081,0.3036,,,
18675,19121,18720,19259,0.3307,,,
17818,18192,17953,18429,0.374,,,
17131,17475,17248,17703,0.3964,,,
16369,16712,16618,17046,0.4362,,,
15781,16088,15922,16240,0.4517,,,
15183,15503,15320,15698,0.46,,,
14571,14831,14645,15046,0.4917,,,
14042,14286,14151,14521,0.511,,,
13496,13686,13574,13962,0.5332,,,
13220,13333,13173,13623,0.5003,,,
12367,12618,12539,12817,0.6131,,,
11961,12156,12062,12307,0.6179,,,
11466,11601,11645,11834,0.6452,,,
11011,11163,11224,11464,0.6796,,,
10680,10726,10802,10943,0.6806,,,
10241,10382,10401,10603,0.7153,,,
9824,9979,9951,10164,0.7448,,,
9584,9631,9681,9797,0.7357,,,
9144,9259,9289,9452,0.7767,,,
8885,8954,8955,9146,0.7847,,,
8529,8620,8643,8843,0.8131,,,
8199,8327,8404,8557,0.8422,,,
7993,8015,8056,8176,0.8455,,,
7750,7713,7834,7952,0.8521,,,
7466,7527,7575,7667,0.8671,,,
7248,7215,7295,7470,0.8773,,,
7022,6990,7102,7220,0.8759,,,
6832,6761,6882,6959,0.8818,,,
6590,6566,6624,6750,0.9121,,,
6386,6327,6460,6535,0.9269,,,
6182,6210,6303,6343,0.9436,,,
6020,5993,6091,6124,0.9383,,,
5865,5830,5902,5965,0.9398,,,
5675,5676,5750,5864,0.9479,,,
5557,5498,5543,5658,0.9304,,,
5410,5353,5415,5458,0.9438,,,
5282,5179,5286,5297,0.9367,,,
5094,5061,5133,5153,0.9719,,,
4998,4894,4986,4996,0.9689,,,
4862,4756,4844,4895,0.9833,,,
4747,4638,4740,4763,0.9817,,,
4591,4490,4609,4635,0.973,,,
4477,4365,4514,4491,0.9657,,,
4358,4280,4407,4439,1,,,
4332,4160,4317,4327,0.9606,,,
4196,4059,4241,4216,0.9896,,,
4166,4016,4094,4087,0.9696,,,
4015,3905,4035,3970,0.9706,,,
3971,3816,3936,3899,0.9431,,,
3881,3708,3819,3824,0.9644,,,
3788,3632,3769,3732,0.9624,,,
3710,3593,3658,3678,0.9608,,,
3611,3482,3601,3588,0.9719,,,
3576,3388,3559,3515,0.9376,,,
3586,3333,3448,3456,0.9031,,,
3454,3316,3397,3391,0.9141,,,
3368,3242,3318,3320,0.9534,,,
3312,3119,3260,3224,0.9336,,,
3246,3101,3204,3214,0.9189,,,
3190,3066,3195,3145,0.9125,,,
3125,2994,3099,3055,0.9221,,,
3115,2917,3064,3039,0.8851,,,
3073,2876,2998,2977,0.8932,,,
3006,2839,2955,2925,0.8738,,,
2969,2779,2837,2835,0.8815,,,
2931,2736,2851,2799,0.8703,,,
2892,2700,2760,2758,0.8574,,,
2814,2626,2730,2698,0.8703,,,
2785,2607,2761,2716,0.8428,,,
2791,2604,2714,2651,0.8092,,,
2682,2537,2627,2582,0.8631,,,
2679,2469,2601,2547,0.8314,,,
2638,2455,2560,2514,0.8287,,,
2628,2418,2511,2480,0.795,,,
2599,2331,2490,2448,0.778,,,
2513,2350,2438,2407,0.8193,,,
2496,2318,2449,2370,0.821,,,
2481,2339,2382,2349,0.7748,,,
2444,2293,2369,2308,0.7661,,,
2417,2232,2349,2290,0.7721,,,
2357,2215,2311,2264,0.7672,,,
2366,2222,2279,2290,0.7355,,,
2329,2171,2260,2224,0.7402,,,
2300,2148,2217,2167,0.7355,,,
2258,2117,2176,2155,0.7456,,,
2227,2062,2172,2117,0.7483,,,
2182,2050,2135,2095,0.7702,,,
2180,2034,2112,2050,0.7535,,,
2142,2005,2113,2010,0.7583,,,
2175,1987,2075,2034,0.6507,,,
2107,1974,2037,2002,0.7177,,,
2081,1922,2040,1975,0.7305,,,
2056,1935,1990,1967,0.7158,,,
2052,1884,1970,1944,0.6956,,,
2022,1860,1954,1907,0.7001,,,
1977,1844,1944,1868,0.6822,,,
1989,1792,1926,1890,0.6795,,,
1947,1792,1871,1870,0.7144,,,
1940,1782,1881,1838,0.6724,,,
65108,64567,65164,64849,0.2995,,,
64706,61735,64216,63423,0.2027,,,
59862,59248,59676,59657,0.545,,,
58095,57361,57684,57781,0.3283,,,
55892,55332,55681,55877,0.4629,,,
53976,53365,53967,53850,0.3337,,,
52187,51619,52088,51961,0.6106,,,
50362,49883,50123,50270,0.5095,,,
48566,48038,48477,48326,0.4398,,,
46774,46422,46696,46695,0.3794,,,
45253,44678,45022,45142,0.4659,,,
43621,42961,43450,43404,0.4271,,,
42116,41292,42035,41765,0.3645,,,
40650,39990,40513,40351,0.3164,,,
39310,38655,39092,39026,0.2447,,,
37852,37094,37647,37393,0.2564,,,
36556,35699,36268,36092,0.2176,,,
35376,34532,35109,34804,0.1578,,,
34115,33461,33798,33572,0.1601,,,
32882,32076,32677,32438,0.1556,,,
31821,31103,31454,31372,0.1317,,,
30653,29849,30272,30055,0.1429,,,
29672,28890,29307,29035,0.1194,,,
28679,27817,28327,28119,0.1212,,,
27631,26768,27256,27041,0.1432,,,
26824,25999,26292,26249,0.0943,,,
25888,25044,25435,25287,0.1022,,,
24905,24165,24522,24292,0.1742,,,
24143,23465,23636,23561,0.141,,,
23497,22698,22871,22890,0.0841,,,
22487,21878,22098,22050,0.2002,,,
21887,21142,21428,21242,0.1401,,,
21190,20388,20682,20549,0.1392,,,
20416,19650,20062,19841,0.2225,,,
19831,19116,19435,19337,0.174,,,
19259,18461,18742,18587,0.1558,,,
18628,17954,18225,18058,0.1795,,,
18093,17407,17626,17537,0.1748,,,
17901,16993,17141,17256,0,,,
16967,16094,16519,16229,0.2138,,,
16435,15640,15935,15721,0.2333,,,
15892,15090,15484,15257,0.2523,,,
15478,14600,15049,14746,0.2294,,,
14942,14208,14660,14341,0.2802,,,
14566,13758,14179,13891,0.2582,,,
14088,13284,13775,13419,0.2896,,,
13723,12987,13325,13066,0.2851,,,
13215,12546,12880,12616,0.3613,,,
12975,12194,12570,12395,0.2971,,,
12620,11796,12119,11945,0.2688,,,
12227,11442,11903,11613,0.3236,,,
11897,11159,11514,11301,0.317,,,
11501,10778,11205,10891,0.3798,,,
11210,10555,10780,10596,0.3455,,,
10909,10206,10580,10285,0.3767,,,
10595,9895,10298,10097,0.383,,,
10287,9636,9948,9721,0.432,,,
10065,9320,9690,9468,0.3636,,,
9752,9125,9469,9167,0.4061,,,
9523,8847,9134,8965,0.3981,,,
9214,8590,8933,8730,0.1815,,,
8959,8362,8626,8410,0.23,,,
8795,8140,8450,8327,0.1685,,,
8513,7874,8168,8007,0.2372,,,
8284,7646,8031,7773,0.2677,,,
8053,7481,7754,7547,0.1505,,,
7813,7194,7589,7345,0.1579,,,
7635,7063,7394,7140,0.1955,,,
7413,6827,7136,6934,0.2365,,,
7228,6659,7052,6815,0.2382,,,
7026,6488,6805,6563,0.2807,,,
6836,6270,6600,6410,0.3007,,,
6653,6160,6449,6215,0.1442,,,
6495,5981,6243,6112,0.1552,,,
6347,5825,6093,5921,0.1816,,,
6171,5657,5928,5745,0.1926,,,
5997,5530,5756,5566,0.2785,,,
5813,5379,5648,5472,0.2858,,,
5680,5217,5493,5301,0.2964,,,
5514,5121,5331,5175,0.3389,,,
5401,4934,5223,5071,0.1639,,,
5264,4844,5066,4902,0.2012,,,
5088,4688,4934,4797,0.2725,,,
4977,4602,4829,4640,0.2937,,,
4897,4467,4689,4536,0.2683,,,
4723,4342,4532,4386,0.3748,,,
4588,4226,4450,4377,0.2527,,,
4518,4080,4283,4204,0.2505,,,
4415,4035,4256,4127,0.2515,,,
4366,3886,4174,4030,0.1696,,,
4191,3824,3990,3907,0.354,,,
4114,3799,3947,3850,0.3337,,,
3971,3672,3851,3755,0.4334,,,
3895,3533,3770,3581,0.4268,,,
3803,3434,3659,3563,0.438,,,
3710,3422,3582,3457,0.1806,,,
3617,3308,3531,3366,0.2195,,,
3555,3255,3395,3337,0.2436,,,
3493,3183,3334,3282,0.2047,,,
3344,3089,3306,3162,0.3639,,,
3305,3023,3218,3119,0.3016,,,
3233,2953,3134,2994,0.3606,,,
3141,2868,3008,2921,0.424,,,
3105,2798,3013,2880,0.4255,,,
3004,2734,2908,2806,0.5217,,,
2940,2704,2870,2769,0.5055,,,
2895,2656,2825,2698,0.4762,,,
2793,2606,2739,2600,0.6374,,,
2759,2545,2667,2619,0.6338,,,
2730,2546,2639,2577,0.582,,,
2644,2466,2564,2503,0.6907,,,
2636,2389,2558,2491,0.5872,,,
2569,2306,2498,2394,0.6549,,,
2506,2323,2446,2364,0.641,,,
2420,2273,2399,2297,0.8185,,,
2378,2213,2343,2275,0.7833,,,
2355,2158,2278,2224,0.8785,,,
2309,2106,2220,2157,0.5729,,,
2236,2089,2209,2124,0.7943,,,
2225,2048,2180,2101,0.5999,,,
2196,1998,2095,2035,0.648,,,
2115,1982,2096,2047,0.7859,,,
2071,1951,2033,1996,0.8357,,,
2051,1936,2014,1940,0.8969,,,
2047,1863,2030,1912,0.7187,,,
1972,1845,1953,1900,0.8529,,,
1953,1816,1909,1871,0.9447,,,
1902,1788,1890,1851,1,,,
55793,62057,59333,57317,0.1633,p12-pre-s4,,
53671,59085,56945,55073,0.1258,,,
51513,56801,54576,52852,0.1002,,,
49427,54820,52341,50826,0.0734,,,
47269,52395,50170,48420,0.0623,,,
45301,50285,48040,46292,0.0442,,,
43520,48226,45897,44272,0.0264,,,
41699,46283,44019,42313,0.0136,,,
39776,44131,42009,40173,0.0142,,,
38058,42345,40128,38366,0.0084,,,
36424,40702,38380,36718,0.0048,,,
34851,38834,36634,34930,0,,,
33290,37021,35074,33121,0.0042,,,
31715,35507,33445,31754,0.013,,,
30417,34001,31880,30275,0.0064,,,
29103,32505,30467,28755,0.0098,,,
27834,31009,29017,27392,0.0114,,,
26569,29730,27770,26186,0.0169,,,
25400,28441,26499,24941,0.0249,,,
24356,27296,25347,23736,0.0236,,,
23210,26110,24169,22786,0.0381,,,
22163,24890,22998,21618,0.0481,,,
21221,23717,22077,20495,0.0488,,,
20293,22671,21046,19687,0.0615,,,
19315,21691,20047,18627,0.0749,,,
18509,20810,19117,17776,0.0793,,,
17635,19759,18294,16888,0.0967,,,
16880,18865,17497,16148,0.101,,,
16277,18234,16696,15521,0.0982,,,
15470,17397,16022,14853,0.1209,,,
14771,16620,15296,13975,0.1335,,,
14145,15915,14547,13446,0.1418,,,
13561,15225,13954,12839,0.1479,,,
12915,14544,13538,12268,0.1681,,,
12584,14082,12866,11831,0.1492,,,
12031,13547,12338,11246,0.1591,,,
11583,12995,11962,10867,0.1654,,,
11154,12615,11408,10521,0.163,,,
10971,12354,11096,10233,0.1342,,,
10368,11629,10632,9569,0.1671,,,
10002,11255,10185,9264,0.1652,,,
9671,10807,9833,8868,0.1667,,,
9317,10481,9496,8542,0.1656,,,
9044,10096,9177,8284,0.1652,,,
8726,9826,8932,7975,0.1583,,,
8393,9469,8585,7670,0.1649,,,
8226,9170,8273,7370,0.1502,,,
7900,8815,7986,7167,0.1613,,,
7629,8584,7734,6907,0.1552,,,
7396,8312,7508,6633,0.1583,,,
7162,8029,7218,6442,0.1589,,,
6917,7726,6927,6108,0.1644,,,
6675,7444,6763,5968,0.1647,,,
6479,7184,6507,5723,0.1642,,,
6291,6965,6242,5495,0.1591,,,
6049,6721,6061,5294,0.1742,,,
5888,6485,5856,5125,0.1696,,,
5621,6231,5656,4911,0.1987,,,
5492,6042,5418,4790,0.1896,,,
5245,5756,5212,4556,0.2105,,,
5021,5645,5077,4424,0.22,,,
4861,5398,4894,4282,0.235,,,
4743,5266,4723,4179,0.2176,,,
4573,5045,4601,3994,0.2318,,,
4445,4854,4404,3897,0.2373,,,
4265,4689,4300,3731,0.258,,,
4161,4537,4084,3571,0.2428,,,
3989,4360,3981,3450,0.2861,,,
3805,4276,3826,3347,0.2931,,,
3738,4121,3719,3253,0.2841,,,
3577,4009,3599,3185,0.333,,,
3499,3890,3465,3058,0.3089,,,
3402,3713,3351,2971,0.2999,,,
3245,3623,3279,2858,0.3342,,,
3189,3478,3167,2767,0.3486,,,
3048,3343,3044,2664,0.3595,,,
2967,3243,2988,2623,0.3663,,,
2874,3149,2906,2509,0.3734,,,
2789,3052,2789,2445,0.3633,,,
2729,2952,2724,2405,0.3871,,,
2628,2872,2672,2289,0.4069,,,
2574,2819,2570,2266,0.3918,,,
2489,2739,2515,2197,0.4219,,,
2427,2673,2423,2173,0.4389,,,
2268,2570,2358,2100,0.4959,,,
2295,2517,2317,2051,0.4684,,,
2275,2490,2245,2028,0.4388,,,
2177,2379,2183,1949,0.4574,,,
2123,2353,2156,1875,0.5034,,,
2107,2286,2087,1859,0.4617,,,
2033,2225,2041,1794,0.4622,,,
1995,2156,1984,1769,0.4892,,,
1979,2132,1960,1745,0.4792,,,
1921,2059,1931,1713,0.4665,,,
1819,2009,1856,1673,0.5505,,,
1822,2007,1851,1656,0.5234,,,
1775,1951,1797,1616,0.5468,,,
1726,1873,1747,1579,0.576,,,
1717,1886,1756,1529,0.5647,,,
1669,1846,1707,1509,0.579,,,
1609,1779,1663,1488,0.631,,,
1649,1738,1628,1468,0.5306,,,
1581,1732,1576,1458,0.5655,,,
1561,1668,1567,1424,0.591,,,
1511,1657,1569,1413,0.7156,,,
1511,1635,1542,1378,0.5832,,,
1489,1618,1483,1376,0.6519,,,
1432,1562,1485,1365,0.7049,,,
1459,1551,1485,1360,0.6229,,,
1420,1533,1452,1352,0.6841,,,
1406,1513,1438,1318,0.6123,,,
1371,1473,1398,1310,0.6606,,,
1351,1465,1403,1273,0.647,,,
1305,1489,1407,1296,0.8212,,,
1342,1427,1363,1224,0.6541,,,
1262,1415,1360,1233,0.8309,,,
1290,1387,1336,1228,0.7594,,,
1251,1407,1347,1218,0.6941,,,
1263,1361,1277,1213,0.8063,,,
1243,1356,1331,1199,0.8154,,,
1242,1337,1288,1206,0.8644,,,
1224,1281,1283,1192,0.7982,,,
1228,1341,1265,1180,0.7708,,,
1155,1327,1246,1178,1,,,
1180,1263,1256,1149,0.8694,,,
1169,1286,1224,1174,0.9189,,,
1191,1226,1220,1145,0.8016,,,
1180,1240,1177,1143,0.8191,,,
64086,63851,63704,63819,0.1865,p12-pre-s5,,
64130,61700,59967,62000,0,,,
59893,57782,56793,57479,0.0625,,,
56622,55488,54418,55119,0.0884,,,
53934,53120,52108,52592,0.0853,,,
51671,50829,49918,50119,0.0674,,,
49356,48751,47670,47990,0.0606,,,
47372,46668,45512,45618,0.0388,,,
45146,44453,43448,43413,0.0437,,,
43186,42552,41389,41413,0.0385,,,
41457,40872,39497,39578,0.0247,,,
39360,38920,37806,37538,0.0425,,,
37696,37146,36126,35790,0.0372,,,
36027,35465,34435,34105,0.0393,,,
34577,34044,32841,32559,0.0308,,,
32908,32484,31345,30912,0.0475,,,
31477,31029,29947,29397,0.0498,,,
30150,29772,28564,28236,0.0519,,,
28783,28552,27232,26833,0.0605,,,
27540,27201,26091,25588,0.066,,,
26419,26207,24967,24516,0.0634,,,
25157,25001,23848,23223,0.0826,,,
24137,23932,22744,22165,0.0819,,,
23003,22892,21717,21141,0.1038,,,
22150,21844,20882,20131,0.0943,,,
21260,21049,19914,19291,0.0985,,,
20352,20136,18957,18381,0.1074,,,
19504,19280,18285,17538,0.112,,,
18771,18648,17473,16982,0.1083,,,
18147,17893,16728,16148,0.0973,,,
17232,17053,16056,15337,0.128,,,
16639,16473,15357,14704,0.1227,,,
15991,15683,14772,14135,0.1236,,,
15385,15099,14176,13459,0.1312,,,
14916,14744,13760,13171,0.1148,,,
14282,14131,13160,12468,0.1275,,,
13782,13604,12666,12012,0.1204,,,
13352,13321,12153,11630,0.121,,,
13199,12877,11789,11373,0.0674,,,
12341,12179,11272,10650,0.1243,,,
12014,11785,10932,10234,0.1101,,,
11569,11351,10521,9852,0.1191,,,
11163,10942,10226,9478,0.1186,,,
10806,10577,9791,9052,0.1098,,,
10454,10268,9525,8806,0.1138,,,
10133,9851,9150,8459,0.1051,,,
9742,9583,8814,8201,0.1149,,,
9404,9193,8466,7784,0.124,,,
9206,8944,8187,7574,0.0963,,,
